Point in Time[s],Response Time[s]
0.399999999,0.399999999
0.933333335,0.733333335
1.338888889,0.9388888889999999
1.879722223,1.2797222229999998
2.344391535,1.5443915350000001
2.803892668,1.803892668
3.290313261,2.0903132610000004
3.766860762,2.366860762
4.269104839,2.6691048389999996
4.734681408,2.9346814080000003
5.201646476,3.2016464759999996
5.632232432,3.432232432
6.023602727,3.623602727
6.398602727,3.798602727
6.740625339,3.9406253390000003
7.097251213,4.097251213
7.418329414,4.218329413999999
7.733017498,4.333017498
8.025422001,4.425422001000001
8.302112142,4.5021121420000005
8.579327484,4.579327484
8.82548133,4.62548133
9.053925447,4.653925446999999
9.272758572,4.672758572000001
9.477424186,4.6774241860000005
9.868668771,4.668668770999999
10.259185064,4.659185064000001
10.650253149,4.650253148999999
11.065469636,4.665469635999999
11.269834279,4.669834279
11.465114875,4.6651148749999996
11.656122533,4.656122533
12.040810042,4.640810042
12.229119177,4.629119177
12.609902564,4.609902564
12.796000615,4.596000615000001
12.965744843,4.565744842999999
13.517020948,4.517020948000001
13.721227314,4.521227314000001
14.156326695,4.556326695000001
14.605359788,4.6053597879999995
15.090756894,4.690756894
15.330756894,4.730756894000001
15.553863963,4.753863962999999
15.99642203,4.7964220300000004
16.232694767,4.832694767000001
16.471578438,4.871578438000002
16.707369248,4.907369247999998
17.163859627,4.9638596270000015
17.388463685,4.988463685000001
18.072588461,5.072588460999999
18.307482382,5.107482382000001
18.528366698,5.128366697999999
18.733898635,5.1338986349999995
18.934743389,5.1347433890000005
19.122243389,5.122243389000001
19.468782674,5.0687826739999995
19.635880596,5.035880596
19.800341259,5.000341258999999
19.944785704,4.944785704000001
20.354195218,4.754195218000001
20.483606982,4.683606982000001
20.594835021,4.5948350210000015
20.694835021,4.494835021
20.78295912,4.382959120000002
20.959049856,4.159049855999999
21.198081983,3.798081983000003
21.497119719,3.2971197190000012
21.569748784,3.169748784000003
21.693766213,2.8937662129999993
21.856811092,2.4568110920000024
21.898685625,2.2986856249999974
22.168477473,1.3684774729999987
22.421015006,1.0210150060000025
22.919323317,0.9193233169999999
23.180112774,0.980112774000002
23.380112774,0.980112774000002
23.764915409,0.9649154089999996
23.878361523,0.8783615229999988
23.999999996,0.5999999960000011
24.9,0.29999999999999716
25.3,0.3000000000000007
25.7,0.3000000000000007
26.5,0.3000000000000007
27.9,0.29999999999999716
28.4,0.3999999999999986
28.6,0.40000000000000213
29.3,0.3000000000000007
29.7,0.3000000000000007
30.5,0.3000000000000007
31.799999999,0.39999999900000205
31.999999999,0.3999999989999985
32.3,0.29999999999999716
32.9,0.29999999999999716
34.399999999,0.39999999900000205
34.900000001,0.7000000009999994
35.15,0.75
35.433333334,0.8333333339999953
35.977777777,0.977777777
36.287962962,1.0879629619999989
36.593287036,1.193287036000001
36.911053239,1.311053238999996
37.398075809,1.398075808999998
37.598075809,1.398075808999998
37.779841819,1.3798418189999992
37.900848764,1.3008487640000013
38.06974344,1.0697434400000034
38.199999998,0.5999999980000013
39.1,0.30000000000000426
39.799999999,0.39999999900000205
39.999999999,0.39999999900000205
40.5,0.29999999999999716
41.0,0.3999999999999986
41.399999999,0.5999999990000049
41.6,0.6000000000000014
41.999999999,0.5999999990000049
42.2,0.6000000000000014
42.399999999,0.39999999900000205
43.399999999,0.39999999900000205
43.599999999,0.39999999899999494
44.5,0.29999999999999716
46.199999999,0.39999999900000205
46.600000001,0.600000000999998
46.800000001,0.600000000999998
47.300000003,0.7000000029999995
47.550000003,0.7500000030000038
47.750000002,0.7500000020000002
48.000000003,0.6000000029999981
48.200000002,0.40000000200000585
48.600000006,0.4000000059999991
49.133333345,0.7333333449999984
49.433333345,0.8333333449999998
49.650000008,0.8500000080000021
49.783333341,0.7833333410000023
50.200000015,0.6000000149999991
50.400000022,0.6000000220000032
50.800000037,0.6000000369999938
50.900000029,0.5000000289999988
51.799999999,0.39999999900000205
52.300000001,0.7000000009999994
52.55,0.75
52.825,0.8250000000000028
53.124999999,0.7249999990000049
53.199999999,0.5999999989999978
53.6,0.3999999999999986
54.1,0.7000000000000028
54.349999999,0.7499999989999964
54.549999999,0.7499999990000035
54.799999998,0.5999999979999942
55.300000003,0.7000000029999995
55.5,0.7000000000000028
55.6,0.6000000000000014
56.3,0.29999999999999716
56.799999999,0.39999999900000205
56.999999999,0.39999999900000205
57.7,0.30000000000000426
58.6,0.3999999999999986
59.133333333,0.7333333330000045
59.433333333,0.8333333329999988
59.649999999,0.8499999990000049
59.783333332,0.783333331999998
60.33333333,0.7333333300000007
60.633333332,0.8333333320000023
60.849999998,0.8499999980000013
60.983333331,0.7833333309999944
61.533333327,0.733333327000004
61.844444442,0.8444444419999968
62.192592589,0.9925925889999974
62.392592589,0.9925925890000045
62.755555552,0.9555555519999999
62.922222217,0.9222222169999981
63.238888884,0.8388888839999993
63.58055555,0.7805555500000025
63.739814811,0.7398148110000022
63.899999997,0.4999999970000033
64.399999999,0.39999999900000205
64.800000001,0.600000000999998
64.9,0.5
66.599999999,0.39999999900000205
66.799999999,0.39999999899998784
67.1,0.29999999999999716
67.7,0.29999999999999716
68.399999999,0.39999999900000205
68.599999999,0.39999999900000205
68.9,0.30000000000001137
69.399999999,0.39999999900000205
69.599999999,0.39999999900000205
69.999999999,0.39999999900000205
70.199999999,0.39999999900000205
70.599999999,0.39999999900000205
71.133333335,0.7333333349999975
71.444444444,0.8444444440000041
71.744444444,0.9444444439999984
71.916666666,0.9166666659999976
72.16111111,0.7611111099999874
72.299999999,0.49999999899999636
73.199999999,0.39999999900000205
73.700000001,0.7000000010000065
73.9,0.7000000000000028
74.0,0.5999999999999943
74.5,0.29999999999999716
74.9,0.30000000000001137
75.399999999,0.39999999900000205
75.900000001,0.7000000009999923
76.1,0.6999999999999886
76.2,0.6000000000000085
76.5,0.29999999999999716
77.399999999,0.39999999900000205
77.599999999,0.39999999900000205
78.199999999,0.39999999900000205
78.600000001,0.600000000999998
78.7,0.5
79.3,0.29999999999999716
79.9,0.30000000000001137
80.399999999,0.39999999900000205
80.900000001,0.7000000009999923
81.15,0.75
81.433333333,0.8333333329999988
81.977777777,0.977777777
82.27037037,1.070370369999992
82.47037037,1.070370369999992
82.598148147,0.9981481470000091
82.699999999,0.6999999989999992
83.5,0.29999999999999716
83.999999999,0.39999999900000205
84.500000001,0.7000000010000065
84.7,0.7000000000000028
84.8,0.5999999999999943
85.199999999,0.39999999900000205
85.399999999,0.39999999900000205
85.7,0.29999999999999716
86.1,0.29999999999999716
86.999999999,0.39999999900000205
87.199999999,0.39999999900000205
88.1,0.29999999999999716
88.5,0.29999999999999716
89.1,0.29999999999999716
90.399999999,0.39999999900000205
90.599999999,0.39999999900000205
91.599999999,0.39999999900000205
92.000000001,0.600000000999998
92.1,0.5
92.599999999,0.39999999900000205
93.100000001,0.7000000009999923
93.3,0.7000000000000028
93.4,0.6000000000000085
94.199999999,0.39999999900000205
94.399999999,0.39999999900000205
94.9,0.30000000000001137
95.8,0.3999999999999915
95.999999999,0.39999999900000205
97.3,0.29999999999999716
97.9,0.30000000000001137
98.3,0.29999999999999716
98.8,0.3999999999999915
99.199999999,0.5999999990000049
99.4,0.6000000000000085
99.599999999,0.39999999900000205
