Point in Time[s],Response Time[s]
0.399999999,0.399999999
0.933333335,0.733333335
1.338888889,0.9388888889999999
1.879722223,1.2797222229999998
2.344391535,1.5443915350000001
2.803892668,1.803892668
3.290313261,2.0903132610000004
3.766860762,2.366860762
4.269104839,2.6691048389999996
4.734681408,2.9346814080000003
5.215916048,3.2159160480000004
5.690125086,3.490125086
6.132500166,3.732500166
6.588447898,3.988447898
7.021082459,4.221082459
7.458007412,4.458007412
7.874284343,4.674284343
8.294336833,4.894336832999999
8.698624871,5.098624871
9.086738614,5.286738614
9.470071947,5.470071946999999
9.808921371,5.608921371
10.145349104,5.745349103999999
10.459634818,5.859634818
10.753126995,5.953126995000001
11.04422828,6.0442282800000005
11.31181058,6.111810579999999
11.573081767,6.173081766999999
12.064336492,6.264336492000001
12.29963061,6.2996306099999995
12.514932887,6.314932887
12.721318047,6.321318047
12.917588611,6.317588611
13.107062295,6.307062295000001
13.458305707,6.258305706999999
13.628305707,6.2283057070000005
13.786095901,6.186095901
13.928953044,6.128953044
14.060035336,6.060035336
14.178217154,5.978217154000001
14.411137409,5.8111374090000005
14.526785387,5.726785387
14.633727647,5.633727647000001
15.084516047,5.2845160469999986
15.202658557,5.2026585569999995
15.557419415,4.957419415
15.667727805,4.8677278049999995
15.877930897,4.677930897000001
16.214375894,4.414375893999999
16.707568048,4.107568047999999
16.839698325,4.039698325
17.250981842,3.8509818420000013
17.885710679,3.6857106789999996
18.054941448,3.6549414480000006
18.214155791,3.614155791
18.378660429,3.5786604289999993
18.530135519,3.5301355190000017
18.664417692,3.4644176920000014
19.060736645,3.260736644999998
19.201651619,3.2016516189999997
19.334984952,3.134984952
19.591626529,2.9916265289999977
19.718247342,2.918247342000001
19.971199246,2.771199246000002
20.769065654,2.569065653999999
20.98716481,2.587164810000001
21.768631299,2.768631298999999
22.037475007,2.837475007000002
22.336356534,2.9363565340000015
22.632365079,3.032365078999998
22.934643968,3.134643967999999
23.216692282,3.2166922820000003
23.491692282,3.2916922819999996
23.713914504,3.313914504000003
23.893914504,3.293914504
24.04161882,3.2416188199999993
24.169708332,3.169708331999999
24.546477903,2.946477902999998
24.783160439,2.7831604389999995
24.905639262,2.705639262000002
25.009954171,2.609954171000002
25.22050293,2.420502929999998
25.437991996,2.2379919960000016
26.276284135,2.0762841350000016
26.80203887,2.202038869999999
27.033817834,2.233817834
27.256622427,2.256622427
27.488296732,2.288296731999999
27.699595699,2.299595699000001
27.909862982,2.3098629819999985
28.094840146,2.2948401459999985
28.252313504,2.252313504
28.385646837,2.185646837
29.165196467,1.965196467000002
29.665971885,2.0659718849999997
29.960699944,2.160699944000001
30.241286529,2.241286529
30.534404045,2.3344040449999994
30.858055504,2.4580555040000007
31.577194388,2.777194387999998
31.869199541,2.8691995410000004
32.125414457,2.9254144569999987
32.367127175,2.9671271750000017
32.585696861,2.985696861000001
32.779099672,2.9790996720000003
33.135417137,2.935417136999998
33.323215626,2.923215626000001
33.500177175,2.900177174999996
33.660177175,2.8601771750000005
33.796482734,2.7964827340000014
34.252499304,2.4524993039999963
34.493697153,2.2936971529999965
34.595523421,2.1955234210000043
34.866209134,1.8662091340000018
34.935566753,1.7355667530000005
34.982144097,1.582144097000004
35.199999989,0.9999999889999955
35.399999994,0.3999999939999981
35.7,0.30000000000000426
36.399999999,0.39999999900000205
36.800000001,0.600000000999998
37.000000001,0.600000000999998
37.400000002,0.6000000020000016
37.600000002,0.6000000020000016
37.800000001,0.4000000010000022
38.399999999,0.39999999900000205
38.599999999,0.39999999899999494
38.9,0.29999999999999716
39.799999999,0.39999999900000205
39.999999999,0.39999999900000205
40.3,0.29999999999999716
40.7,0.30000000000000426
41.199999999,0.39999999900000205
41.399999999,0.39999999900000205
42.6,0.3999999999999986
42.999999999,0.5999999990000049
43.099999999,0.49999999899999636
43.5,0.29999999999999716
44.0,0.3999999999999986
44.199999999,0.39999999900000205
44.6,0.3999999999999986
44.799999999,0.39999999900000205
45.199999999,0.39999999900000205
45.700000001,0.7000000009999994
45.95,0.75
46.15,0.75
46.3,0.5
47.1,0.30000000000000426
48.3,0.29999999999999716
49.199999999,0.39999999900000205
49.600000001,0.600000000999998
49.800000001,0.600000000999998
50.300000003,0.7000000029999995
50.550000003,0.7500000030000038
50.750000002,0.7500000020000002
50.900000001,0.5000000010000036
51.799999999,0.39999999900000205
52.333333335,0.7333333349999975
52.633333333,0.8333333330000059
52.833333333,0.8333333329999988
52.899999999,0.6999999989999992
53.399999999,0.39999999900000205
53.599999999,0.39999999899999494
54.199999999,0.39999999900000205
54.399999999,0.39999999900000205
54.9,0.29999999999999716
55.6,0.3999999999999986
56.1,0.7000000000000028
56.349999999,0.7499999989999964
56.549999999,0.7499999990000035
56.699999999,0.49999999899999636
57.399999999,0.39999999900000205
57.599999999,0.39999999899999494
58.399999999,0.39999999900000205
58.599999999,0.39999999899999494
58.9,0.29999999999999716
59.799999999,0.39999999900000205
60.300000001,0.7000000009999994
60.55,0.75
60.825,0.8250000000000028
61.124999999,0.7249999990000049
61.199999999,0.5999999989999978
61.5,0.29999999999999716
62.3,0.29999999999999716
62.7,0.30000000000000426
63.3,0.29999999999999716
63.9,0.29999999999999716
64.3,0.29999999999999716
64.9,0.30000000000001137
65.599999999,0.39999999900000205
65.799999999,0.39999999899998784
66.1,0.29999999999999716
67.1,0.29999999999999716
67.5,0.29999999999999716
68.199999999,0.39999999900000205
68.733333335,0.7333333349999975
69.111111111,0.9111111109999968
69.411111111,1.011111110999991
69.544444444,0.9444444440000126
69.599999999,0.7999999990000077
70.5,0.29999999999999716
71.1,0.29999999999999716
71.599999999,0.39999999900000205
72.133333335,0.7333333349999975
72.433333333,0.8333333329999988
72.633333333,0.8333333329999988
72.699999999,0.6999999989999992
73.1,0.29999999999999716
73.5,0.29999999999999716
73.9,0.30000000000001137
74.5,0.29999999999999716
74.999999999,0.39999999900000205
75.400000001,0.600000000999998
75.6,0.5999999999999943
76.000000001,0.600000000999998
76.1,0.5
77.3,0.29999999999999716
77.7,0.29999999999999716
78.399999999,0.39999999900000205
78.599999999,0.39999999900000205
78.999999999,0.39999999900000205
79.199999999,0.39999999900000205
79.999999999,0.39999999900000205
80.400000001,0.600000000999998
80.6,0.5999999999999943
81.000000001,0.600000000999998
81.2,0.6000000000000085
81.4,0.4000000000000057
81.8,0.3999999999999915
81.999999999,0.39999999900000205
82.5,0.29999999999999716
82.999999999,0.39999999900000205
83.199999999,0.39999999900000205
84.399999999,0.39999999900000205
84.599999999,0.39999999900000205
84.9,0.30000000000001137
85.3,0.29999999999999716
86.5,0.29999999999999716
86.9,0.30000000000001137
87.7,0.29999999999999716
88.5,0.29999999999999716
88.999999999,0.39999999900000205
89.199999999,0.39999999900000205
89.599999999,0.39999999900000205
90.100000001,0.7000000009999923
90.35,0.75
90.625,0.8250000000000028
90.9875,0.7874999999999943
91.1375,0.7374999999999972
91.399999999,0.5999999990000049
91.800000001,0.600000000999998
91.9,0.5
92.399999999,0.39999999900000205
92.599999999,0.39999999900000205
92.999999999,0.39999999900000205
93.199999999,0.39999999900000205
93.5,0.29999999999999716
93.9,0.30000000000001137
94.399999999,0.39999999900000205
94.599999999,0.39999999900000205
94.9,0.30000000000001137
95.5,0.29999999999999716
95.9,0.30000000000001137
96.599999999,0.39999999900000205
96.799999999,0.39999999899998784
97.3,0.29999999999999716
97.999999999,0.39999999900000205
98.400000001,0.600000000999998
98.6,0.5999999999999943
99.133333335,0.7333333349999975
99.538888889,0.9388888890000118
